omega,U2.4,U3.5
-4.0,0.0006149537312380598,0.0005923977639591504
-3.992,0.0006249882966398581,0.0005950830099829047
-3.984,0.0006579267017279058,0.0005971938564849949
-3.976,0.0007111406454910665,0.0005974602769958201
-3.968,0.0007779777908614767,0.0005944732165639178
-3.96,0.000848813342959,0.0005869716305447244
-3.952,0.00091273854081304,0.0005741162407178683
-3.944,0.0009596147510403663,0.0005557006633064506
-3.936,0.0009821118150483753,0.0005322615367763407
-3.928,0.0009773099199980799,0.0005050667137346486
-3.92,0.0009475026918195344,0.00047598131849756935
-3.912,0.0008999924551259321,0.00044723187474884413
-3.904,0.0008458802061430573,0.0004211053579704432
-3.896,0.0007980662147149523,0.00039963033286027883
-3.888,0.000768838425213407,0.0003842899201342928
-3.88,0.0007675031180754482,0.0003758111424514094
-3.872,0.0007985015221541129,0.00037406333281071426
-3.864,0.0008603722176071612,0.00037808170971107463
-3.856,0.0009457819621196342,0.00038621339018104426
-3.848,0.0010426728641454743,0.0003963646700263
-3.84,0.0011363764147115922,0.0004063129235690566
-3.832,0.0012123484768284656,0.0004140362197091488
-3.824,0.0012590226894319569,0.00041801038729961346
-3.816,0.0012702099880430278,0.0004174275796621734
-3.808,0.0012465252456452624,0.0004123020437912565
-3.8,0.0011955023496397646,0.0004034462229485904
-3.792,0.0011303289322637483,0.0003923208544831786
-3.784,0.0010674232566860737,0.00038078303153585774
-3.776,0.001023315171887175,0.00037077286058360997
-3.768,0.0010114288940130467,0.0003639895128617167
-3.76,0.0010393806235257656,0.0003616093773252325
-3.752,0.0011073110145144126,0.0003640923117760881
-3.744,0.001207596808393979,0.00037110771847684315
-3.736,0.0013260529332244672,0.0003815926205991812
-3.728,0.0014444703760546596,0.00039393220917252977
-3.72,0.0015440688154301954,0.0004062329618320359
-3.712,0.0016092252954315195,0.00041664275703356875
-3.704,0.0016307306687109557,0.0004236641146702663
-3.696,0.0016078726829464895,0.0004264073585835694
-3.688,0.0015488593781536333,0.000424740234507499
-3.68,0.0014694378463579378,0.0004193078727801963
-3.672,0.0013899476343207271,0.0004114191016254683
-3.664,0.0013313787219564025,0.0004028181985738767
-3.656,0.0013112065469010328,0.0003953811608941783
-3.648,0.0013398188728842256,0.000390788922247296
-3.64,0.0014182398712133493,0.0003902342397640456
-3.632,0.001537627078051253,0.00039421340807969517
-3.624,0.0016807042297112553,0.000402439426721932
-3.616,0.0018249362477951994,0.00041389220580731944
-3.608,0.0019469003066884965,0.0004269974284086435
-3.6,0.002027024438558,0.000439902933869051
-3.592,0.002053727465629492,0.00045080396051220927
-3.584,0.0020260598893022163,0.0004582595014722843
-3.576,0.001954225616029492,0.0004614431991285304
-3.568,0.0018578052944651518,0.0004602836495350741
-3.56,0.0017619967969707225,0.00045546882612760274
-3.552,0.0016926140064913062,0.00044831404053722576
-3.544,0.0016708449862683735,0.00044051788909932105
-3.536,0.001708820783922322,0.00043385127125582343
-3.528,0.0018068944451879964,0.00042983685911247545
-3.52,0.0019532165535958625,0.00042947795530834783
-3.512,0.0021257714986319407,0.0004330861575800394
-3.504,0.002296566795805041,0.0004402384406253367
-3.496,0.00243721808644242,0.00044986974945918664
-3.488,0.002524833908503056,0.0004604816666158416
-3.48,0.002546969387576614,0.0004704260805995549
-3.472,0.0025045497664941767,0.0004782092287084969
-3.464,0.002412061342315054,0.00048275863731879427
-3.456,0.0022948874504136393,0.0004836038455852698
-3.448,0.002184289650339797,0.0004809396185472042
-3.44,0.0021110463440322212,0.0004755639317545377
-3.432,0.0020990484326512443,0.0004687074508328743
-3.424,0.0021601667666588855,0.0004617915053308329
-3.416,0.002291464826096059,0.0004561636088459704
-3.408,0.0024753880437838175,0.0004528612255883698
-3.4,0.002682992680540033,0.0004524458854167714
-3.392,0.002879668780444144,0.0004549332997775642
-3.384,0.003032267033538259,0.000459824818850566
-3.376,0.003116176127141062,0.0004662259685997222
-3.368,0.0031208229244143503,0.0004730229642196991
-3.36,0.0030523378325938433,0.00047908062181864627
-3.352,0.0029327081960206997,0.0004834256549861177
-3.344,0.0027955053033584983,0.0004853867155804336
-3.336,0.0026790291352840378,0.0004846741039029351
-3.328,0.002618286227412529,0.000481394668943067
-3.32,0.002637476546011694,0.00047600822634132365
-3.312,0.002744576031511641,0.0004692390597595902
-3.304,0.0029291974235092833,0.0004619592995720075
-3.296,0.003164274743554165,0.00045506093954443034
-3.288,0.003411353664919283,0.00044933137995739744
-3.28,0.0036285085752394888,0.0004453450965282928
-3.272,0.0037792943142390847,0.0004433821692611325
-3.264,0.00384082550669786,0.00044338294731647817
-3.256,0.0038091693306898937,0.0004449463220634658
-3.248,0.003700759198911267,0.00044737589874722965
-3.24,0.003549389307330808,0.0004497730906418616
-3.232,0.003399333514228162,0.0004511689282844677
-3.224,0.0032960058249769044,0.00045067831881495543
-3.216,0.0032761388504118734,0.00044765355089461
-3.208,0.0033595868475613058,0.0004418102122715878
-3.2,0.0035445512050115125,0.00043330009607847185
-3.192,0.0038073509390202805,0.00042271274693666546
-3.184,0.004106943730516837,0.00041099923699772505
-3.176,0.004393403329701403,0.00039932641051086296
-3.168,0.004618663180694493,0.0003888841545816539
-3.16,0.004747242405950937,0.00038067904458225545
-3.152,0.0047645488605779105,0.00037535239467907633
-3.144,0.004680785693654362,0.00037305798527570953
-3.136,0.004529414019092921,0.00037342478819424676
-3.128,0.004360341456463747,0.0003756146618983856
-3.12,0.004229219668924698,0.0003784672065529732
-3.112,0.004185148344741626,0.00038070725843624965
-3.104,0.004259488300166828,0.00038117818137592435
-3.096,0.00445830239405927,0.00037905862409490183
-3.088,0.004760216374302287,0.00037402284143495454
-3.08,0.005120366088408366,0.0003663145529617844
-3.072,0.005479783027073279,0.0003567197359945893
-3.064,0.005778322911319228,0.00034644181171572975
-3.056,0.005968336900114047,0.0003369000604734796
-3.048,0.00602596466533507,0.00032948570509102796
-3.04,0.005957328986206018,0.00032531762144807983
-3.032,0.005797994222419511,0.000325039908679681
-3.024,0.005605584655453084,0.0003286966791606193
-3.016,0.005447072340602472,0.00033570668493107606
-3.008,0.0053835364816746745,0.00034494396295660595
-3.0,0.005455852930568271,0.00035491327106334375
-2.992,0.005674642635200787,0.0003639935234930279
-2.984,0.0060169225508127375,0.00037071122515131173
-2.976,0.006430446804268498,0.0003740008508127213
-2.968,0.006844995906685566,0.00037341104368450256
-2.96,0.007188230500502561,0.00036922414972522167
-2.952,0.007402550287416952,0.0003624707074558115
-2.944,0.007459003068846357,0.000354838165150363
-2.936,0.007364832242421429,0.00034849220807740345
-2.928,0.007162661086381149,0.00034584789281663457
-2.92,0.006921272777898052,0.00034934526607889745
-2.912,0.006719972378256445,0.0003613000766019499
-2.904,0.0066300994657006685,0.0003839149155465369
-2.896,0.006698006321574596,0.000419549917206108
-2.888,0.006933552376315363,0.00047136430982606015
-2.88,0.00730695620027763,0.0005444479286704992
-2.872,0.007754959412016262,0.000647559780452303
-2.864,0.008195099249685476,0.0007955703123963823
-2.856,0.008544933201766415,0.0010126543916506852
-2.848,0.008741771610112591,0.0013361925030737104
-2.84,0.008758200209444811,0.001821202057676069
-2.832,0.008609542146084784,0.002544942736278583
-2.824,0.008351257559952297,0.0036111390281471857
-2.816,0.008066673773975975,0.005153078266032495
-2.808,0.007847784039432412,0.007334729155655123
-2.8,0.007773561707236685,0.010349046217864838
-2.792,0.007890897299620418,0.014412829385874336
-2.784,0.00820273296810373,0.019757908468235205
-2.776,0.008666371228121842,0.026618975401273295
-2.768,0.009202622892662361,0.03521898577419539
-2.76,0.00971392846571663,0.04575354182106554
-2.752,0.010107396971982398,0.05837589722446991
-2.744,0.010317381838050628,0.07318409469501028
-2.736,0.010322127272293055,0.09021128102217504
-2.728,0.010150268880383985,0.10941959884771048
-2.72,0.00987531457536936,0.13069748842717493
-2.712,0.009599113526452136,0.15386000931770571
-2.704,0.009428025833560305,0.17865204991876987
-2.696,0.0094473584045698,0.20475493872885367
-2.688,0.009700180541289686,0.23179765604065897
-2.68,0.010175744208313842,0.2593740641165958
-2.672,0.010810601028663363,0.2870668810173979
-2.664,0.011502586652627128,0.31447738330648706
-2.656,0.012134765162034277,0.34125739185533166
-2.648,0.0126038937978883,0.3671378123183881
-2.64,0.012846619740031814,0.3919469453475045
-2.632,0.012856869287943355,0.41561283789852266
-2.624,0.012689778374745964,0.4381473531631488
-2.616,0.012450652986434172,0.4596147010858635
-2.608,0.012271092803016241,0.4800923442679642
-2.6,0.012277657725340988,0.4996355323963384
-2.592,0.012560493282052967,0.5182566183427504
-2.584,0.01314964250675868,0.5359262332612238
-2.576,0.01400524395597153,0.5525962802951768
-2.568,0.015024736450749221,0.5682368089379594
-2.56,0.01606619191724255,0.582873031657812
-2.552,0.016982852607945544,0.5966074704527702
-2.544,0.017660829197817713,0.609616439963439
-2.536,0.018050582395348475,0.6221187439745406
-2.528,0.018183768144895977,0.634324731328252
-2.52,0.018170223847644787,0.6463819964173688
-2.512,0.018174644287655042,0.6583367758873689
-2.504,0.018377699185686165,0.6701260178702945
-2.496,0.018930659701140787,0.6816051856135701
-2.488,0.01991487971747332,0.6926043725724045
-2.48,0.021317026543781953,0.7029946979594088
-2.472,0.02302770023777216,0.7127422422595718
-2.464,0.024865602891517603,0.7219300354995682
-2.456,0.026622886809857287,0.7307390596132518
-2.448,0.028121292403535336,0.7393934174615272
-2.44,0.02926483295185291,0.7480877731935242
-2.432,0.030074393230269992,0.7569221430257551
-2.424,0.030693191613143406,0.7658673664981235
-2.416,0.0313590529683894,0.7747744397799432
-2.408,0.032348255165523476,0.7834257219324092
-2.4,0.033904069614381624,0.7916111276753237
-2.392,0.03616865180658539,0.7992031424049028
-2.384,0.03913783816013845,0.8062042995429788
-2.376,0.04265393066069577,0.8127499289025857
-2.368,0.04644233145675179,0.8190644462743774
-2.36,0.05018593461958963,0.8253858202802805
-2.352,0.05361954904686751,0.8318843095729219
-2.344,0.05661873920532125,0.8386039533477461
-2.336,0.05925617395017018,0.8454476352612081
-2.328,0.0618051576231747,0.8522114127268577
-2.32,0.06468354973061279,0.8586564936355299
-2.312,0.06834855211925901,0.864593874181415
-2.304,0.0731690497536111,0.8699520085150163
-2.296,0.07931220175740163,0.8748036843467074
-2.288,0.08668087167649487,0.8793425430896507
-2.28,0.09492692301994463,0.883817395434073
-2.272,0.1035444426451696,0.888447370894542
-2.264,0.11202194790340733,0.89334770432964
-2.256,0.12001109462746473,0.8984921785829252
-2.248,0.12745890169625526,0.9037252395004007
-2.24,0.13465612219068096,0.9088192003552024
-2.232,0.1421765213039258,0.9135560280936122
-2.224,0.15071526367326593,0.917804629026686
-2.216,0.1608694902280174,0.9215663687875973
-2.208,0.1729286884494887,0.924973084530286
-2.2,0.18674680300515692,0.9282389085001584
-2.192,0.20174808225829774,0.9315836747236983
-2.184,0.21707828617286876,0.9351556195792596
-2.176,0.23186372436181799,0.9389809824575238
-2.168,0.24549897325512027,0.9429580816967689
-2.16,0.2578658064924338,0.9468971935788297
-2.152,0.26940022600033625,0.9505910392773449
-2.144,0.2809701291983952,0.9538898840592103
-2.136,0.2935900694986141,0.9567540394978703
-2.128,0.30806047008164195,0.9592652623113465
-2.12,0.32465392305400886,0.9615938576333463
-2.112,0.3429652314932322,0.9639345206064546
-2.104,0.36199266619048576,0.9664351134148502
-2.096,0.38043945405233365,0.9691446365277694
-2.088,0.39714311096522215,0.971998991461231
-2.08,0.41148593119176635,0.9748487438075448
-2.072,0.42363549758674357,0.9775174412417058
-2.064,0.43451550643823506,0.9798679807418549
-2.056,0.445499867929552,0.9818521058482017
-2.048,0.4579253352468012,0.9835250906032001
-2.04,0.47259189608532326,0.9850212214720181
-2.032,0.4894356519628769,0.9865005680832651
-2.024,0.5075057771198431,0.988088070056792
-2.016,0.5252708020045159,0.9898282468758672
-2.008,0.5411568726290483,0.9916721753989112
-2.0,0.5541276078624329,0.9935005341578321
-1.992,0.5640892274708931,0.9951725715240506
-1.984,0.5719597953712666,0.9965812239575753
-1.976,0.5793612175389651,0.9976929132389404
-1.968,0.5880344785132591,0.9985572421092453
-1.96,0.5991888836932624,0.9992840504169136
-1.952,0.613030494297616,0.999998137979509
-1.944,0.6286564012259936,1.0007903342007283
-1.936,0.644368285120808,1.0016843175504182
-1.928,0.6582992327809954,1.0026315985446843
-1.92,0.6691229979949445,1.0035353948563495
-1.912,0.6765749872477571,1.00429256640052
-1.904,0.6815782852709813,1.0048359830132358
-1.896,0.6859149820007496,1.0051602570415032
-1.888,0.6915583278105435,1.0053212208132691
-1.88,0.6999168936402507,1.005410604350469
-1.872,0.711283124323029,1.0055174220386267
-1.864,0.7247060743364192,1.0056925164632222
-1.856,0.7383468485032633,1.0059306755004935
-1.848,0.7501865894943958,1.0061768233105841
-1.84,0.75881491602876,1.0063524889446307
-1.832,0.7639893200509992,1.006390462082652
-1.824,0.7667408703820602,1.006262654767944
-1.816,0.768977812359045,1.0059897134067408
-1.808,0.7727378622037151,1.0056291342431793
-1.8,0.7793826701826996,1.0052478713859103
-1.792,0.7890553911395582,1.0048917290539408
-1.784,0.800621092505866,1.0045646396465178
-1.776,0.8121182646649301,1.0042261382728848
-1.768,0.8215439230282262,1.003807253202783
-1.76,0.8276580743241727,1.0032372635494038
-1.752,0.8304824968985304,1.0024696505778274
-1.744,0.8312902350816247,1.001496670082902
-1.736,0.8320881353405111,1.0003475290068025
-1.728,0.8348017812400343,0.9990724817412686
-1.72,0.8404951397895052,0.997720959869163
-1.712,0.8489444195111129,0.9963236714594352
-1.704,0.8587409256135784,0.9948859226299537
-1.696,0.8678798235224584,0.9933937403713813
-1.688,0.8745906434070331,0.9918284726671184
-1.68,0.878065037525559,0.990182090538068
-1.672,0.878780363377293,0.9884657983024173
-1.664,0.8782868860144495,0.9867083015996526
-1.656,0.8785512196857359,0.9849451994975182
-1.648,0.8811344430139163,0.983204976700997
-1.64,0.8865513895855078,0.9814981956403062
-1.632,0.8940788187164721,0.9798144387396717
-1.624,0.9020879201745593,0.9781275643829491
-1.616,0.9087530363604648,0.976405976184386
-1.608,0.9128294723724595,0.9746226983638955
-1.6,0.9141671083082977,0.9727608374606177
-1.592,0.9137441704837815,0.9708128550254039
-1.584,0.9132154590490537,0.9687753820528336
-1.576,0.9141798120703124,0.9666433817892722
-1.568,0.9174906554465071,0.9644073744259598
-1.56,0.9229094624270415,0.9620554037546745
-1.552,0.9292463676035094,0.9595786468268829
-1.544,0.9349148289418459,0.9569775286119181
-1.536,0.938645137303044,0.9542649062949342
-1.528,0.9400356508515211,0.9514643766924243
-1.52,0.9396993473411789,0.9486041714157069
-1.512,0.9389498351904577,0.9457091738583713
-1.504,0.9391799776921592,0.9427943278706911
-1.496,0.9412226978845406,0.9398618676063921
-1.488,0.944985980766932,0.9369029407526869
-1.48,0.949522948696436,0.9339023214691938
-1.472,0.9534949160663385,0.9308439009041228
-1.464,0.955804949783185,0.9277148419009503
-1.456,0.9561048553550978,0.9245073825229647
-1.448,0.9549429715710123,0.9212185631283252
-1.44,0.9534918097126686,0.9178489538643556
-1.432,0.9529916798917858,0.9144014750072812
-1.424,0.9541761911209582,0.9108808133386073
-1.416,0.9569479031122322,0.9072932272228275
-1.408,0.9604484521774428,0.9036461647926016
-1.4,0.9634781546183407,0.8999472720597265
-1.392,0.965056662211666,0.8962028695897828
-1.384,0.9648561510634602,0.8924164554134272
-1.376,0.9633082742438912,0.8885879247157895
-1.368,0.9613490876794525,0.8847139012629351
-1.36,0.9599412665475189,0.8807890380392717
-1.352,0.959614785720582,0.8768076853379123
-1.344,0.9602481011273994,0.8727651967093539
-1.336,0.9611845404081774,0.8686583921741473
-1.328,0.9616090678918144,0.8644851567181566
-1.32,0.96098422450347,0.8602435582168081
-1.312,0.9593226338000327,0.8559310227078356
-1.304,0.9571646025271386,0.8515439693980797
-1.296,0.9552836829506853,0.8470780034939795
-1.288,0.9542805089015846,0.8425284778003511
-1.28,0.9542763671527595,0.8378911033274097
-1.272,0.9548593879023111,0.8331623429245393
-1.264,0.9553014677840773,0.8283394873030968
-1.256,0.9549249245990075,0.8234204794659115
-1.248,0.9534263929983123,0.8184036424278794
-1.24,0.9509962065924115,0.8132874609574686
-1.232,0.94818460787359,0.8080705068591175
-1.224,0.9455992183431062,0.8027515285582276
-1.216,0.9436006116640919,0.7973296802296782
-1.208,0.9421533459605461,0.7918048468785325
-1.2,0.9408977164849175,0.7861780179177011
-1.192,0.9393859112196915,0.7804516625734149
-1.184,0.9373419727074075,0.7746300635672767
-1.176,0.934801708339827,0.7687195714120065
-1.168,0.9320640916605102,0.7627287456963967
-1.16,0.9294943570075077,0.7566683421067711
-1.152,0.9272991917332479,0.750551078872817
-1.144,0.9254030636977928,0.7443910827307335
-1.136,0.9234906238451189,0.7382028974655267
-1.128,0.9211830277404504,0.7319999677475795
-1.12,0.9182424197410458,0.7257926049574484
-1.112,0.9146891873520854,0.7195855927757663
-1.104,0.9107729602029011,0.7133757666458594
-1.096,0.9068248407154003,0.7071500572266581
-1.088,0.9030836549229642,0.7008845770972113
-1.08,0.8995967245096815,0.6945453116310604
-1.072,0.8962448398962043,0.6880908161089763
-1.064,0.8928650250144914,0.6814770012628445
-1.056,0.8893894684312349,0.6746636166852856
-1.048,0.8859157042142763,0.6676214777249615
-1.04,0.8826701116807315,0.6603389597696223
-1.032,0.8798925944974141,0.652825996582815
-1.024,0.8777142982173508,0.6451139634008751
-1.016,0.8760978053733852,0.6372505145509567
-1.008,0.874865691129223,0.6292896249857713
-1.0,0.8737885813312469,0.62127849615847
-0.992,0.8726723853517856,0.6132442106650078
-0.984,0.8713934378750312,0.6051836067757594
-0.976,0.86987040839361,0.5970594798968155
-0.968,0.8680047908050512,0.5888048695905219
-0.96,0.8656399144243018,0.5803351572638279
-0.952,0.862572282690046,0.5715655434401148
-0.944,0.8586120770860732,0.5624298455300593
-0.936,0.85365765701116,0.5528959781273909
-0.928,0.8477422153432845,0.5429741584737933
-0.92,0.8410314862261136,0.5327156446693171
-0.912,0.8337835001101439,0.5222021599609166
-0.904,0.8263028266687731,0.5115284175021354
-0.896,0.8189196297261802,0.500781721682808
-0.888,0.8120020327495415,0.49002310489589357
-0.88,0.8059851050084151,0.47927381408671466
-0.872,0.8013878601340695,0.46850945715506936
-0.864,0.7987968591688435,0.4576622287256038
-0.856,0.7988139006139244,0.4466298790465819
-0.848,0.801981995080905,0.435288886420569
-0.84,0.8087083947957717,0.42350885766492835
-0.832,0.8191959971160114,0.41116549905278027
-0.824,0.8333834167209446,0.39815037126581365
-0.816,0.850888865460798,0.38437676258478665
-0.808,0.8709572624421351,0.3697820734979709
-0.8,0.8924198749443397,0.35432786140151584
-0.792,0.9136839733806907,0.33799901766704815
-0.784,0.9327712888258406,0.3208034329750575
-0.776,0.9474181377682624,0.3027730409735702
-0.768,0.9552399306928543,0.2839664664968283
-0.76,0.9539513814126012,0.2644728143038154
-0.752,0.9416221510904464,0.24441557391131458
-0.744,0.9169361435412757,0.22395530138924313
-0.736,0.879413076523782,0.20328973040895368
-0.728,0.8295476262779882,0.1826502622925563
-0.72,0.7688290939799327,0.16229433094586457
-0.712,0.6996245827829789,0.14249382991157553
-0.704,0.6249369249345962,0.12352049416570718
-0.696,0.5480764221323271,0.10562971364951941
-0.688,0.4723037316849197,0.08904460585688184
-0.68,0.4005045616388803,0.07394222293470247
-0.672,0.3349455451590129,0.06044350578313163
-0.664,0.2771397165251941,0.04860807565398585
-0.656,0.22782620659382358,0.038434273960909336
-0.648,0.18704806172232247,0.02986415086924605
-0.64,0.15429820052362897,0.022792488197838443
-0.632,0.12869788147306296,0.017078519509023143
-0.624,0.10917422193236985,0.01255883121687169
-0.616,0.09461142320962049,0.00905999263167738
